      freq (eV)    K-K (Drude)          Drude    Marachevsky     Gen_plasma      Bren_Borm         Lor-Dr
          0.050      22419.467      22084.917      11600.261      32746.896      12645.737      12157.154
          0.052      21062.371      20731.308      10972.084      30370.267      11949.386      11495.841
          0.054      19827.252      19499.745      10395.498      28243.334      11310.839      10889.052
          0.055      18694.094      18370.220       9862.167      26322.816      10720.748      10327.974
          0.057      17662.354      17342.144       9372.733      24600.345      10179.722       9813.248
          0.059      16715.294      16398.790       8920.063      23041.617       9679.781       9337.341
          0.061      15843.786      15531.022       8500.465      21626.515       9216.769       8896.342
          0.063      15035.868      14726.889       8108.742      20331.481       8784.883       8484.767
          0.065      14293.026      13987.831       7746.126      19155.304       8385.421       8103.889
          0.067      13601.383      13300.004       7406.294      18072.952       8011.361       7747.048
          0.069      12962.827      12665.250       7090.567      17084.801       7664.109       7415.613
          0.071      12368.958      12075.183       6795.153      16175.561       7339.449       7105.589
          0.073      11815.657      11525.678       6518.307      15337.048       7035.424       6815.131
          0.075      11296.660      11010.485       6257.154      14558.212       7218.307       6541.210
          0.077      10814.112      10531.708       6013.013      13840.870       6709.312       6285.200
          0.078      10362.325      10083.672       5783.230      13175.296       6399.387       6044.307
          0.080       9936.563       9661.657       5565.577      12553.502       6131.370       5816.188
          0.082       9538.935       9267.730       5361.302      11977.642       5889.136       5602.142
          0.084       9165.068       8897.534       5168.318      11440.537       5664.789       5399.975
          0.086       8813.087       8549.193       4985.795      10938.787       5455.288       5208.810
          0.088       8479.615       8219.344       4812.095      10466.978       5257.601       5026.928
          0.090       8166.586       7909.883       4648.337      10027.296       5072.374       4855.494
          0.092       7869.322       7616.166       4492.174       9612.674       4896.564       4692.046
          0.094       7589.654       7339.986       4344.657       9225.230       4731.104       4537.679
          0.096       7324.844       7078.622       4204.428       8860.765       4574.294       4390.969
          0.098       7073.848       6831.029       4071.007       8517.495       4425.477       4251.411
          0.099       6835.713       6596.253       3943.955       8193.808       4284.070       4118.539
          0.101       6607.260       6371.148       3821.629       7885.135       4148.180       3990.634
          0.103       6393.515       6160.654       3706.778       7598.003       4020.808       3870.568
          0.105       6190.115       5960.458       3597.117       7326.288       3899.372       3755.948
          0.107       5996.396       5769.898       3492.335       7068.904       3783.493       3646.447
          0.109       5811.749       5588.363       3392.142       6824.863       3672.825       3541.760
          0.111       5626.566       5406.405       3291.340       6581.396       3561.611       3436.454
          0.113       5458.824       5241.680       3199.750       6361.983       3460.669       3340.788
          0.115       5298.567       5084.393       3111.992       6153.375       3364.042       3249.139
          0.117       5145.353       4934.102       3027.852       5954.872       3271.482       3161.282
          0.119       4998.772       4790.397       2947.132       5765.832       3182.759       3077.009
          0.120       4858.442       4652.897       2869.647       5585.665       3097.660       2996.125
          0.122       4724.011       4521.251       2795.223       5413.821       3015.985       2918.448
          0.124       4595.150       4395.128       2723.702       5249.798       2937.551       2843.811
          0.126       4465.188       4268.000       2651.384       5085.077       2857.168       2768.353
          0.128       4346.824       4152.283       2585.357       4935.678       2784.851       2699.468
          0.130       4233.160       4041.221       2521.801       4792.777       2715.288       2633.170
          0.132       4123.947       3934.566       2460.594       4656.002       2648.338       2569.330
          0.134       4018.955       3832.090       2401.619       4525.008       2583.867       2507.826
          0.136       3917.968       3733.574       2344.770       4399.473       2521.754       2448.546
          0.138       3820.782       3638.819       2289.943       4279.099       2461.883       2391.381
          0.140       3727.208       3547.633       2237.043       4163.607       2404.146       2336.231
          0.142       3632.416       3455.311       2183.342       4047.023       2345.565       2280.253
          0.143       3545.710       3370.910       2134.121       3940.753       2291.899       2228.951
          0.145       3462.105       3289.571       2086.569       3838.622       2240.075       2179.392
          0.147       3381.455       3211.147       2040.609       3740.417       2190.011       2131.498
          0.149       3303.620       3135.500       1996.172       3645.940       2141.626       2085.195
          0.151       3228.471       3062.501       1953.189       3555.005       2094.845       2040.412
          0.153       3155.884       2992.027       1911.598       3467.436       2049.597       1997.083
          0.155       3082.118       2920.445       1869.256       3378.715       2003.552       1952.975
          0.157       3014.434       2854.800       1830.337       3297.554       1961.247       1912.438
          0.159       2948.979       2791.348       1792.637       3219.288       1920.282       1873.172
          0.161       2885.655       2729.992       1756.104       3143.781       1880.601       1835.126
          0.163       2824.370       2670.641       1720.692       3070.906       1842.151       1798.249
          0.165       2765.036       2613.208       1686.353       3000.542       1804.880       1762.493
          0.166       2707.571       2557.612       1653.045       2932.574       1768.741       1727.812
          0.168       2651.897       2503.774       1620.727       2866.895       1733.688       1694.165
          0.170       2595.147       2448.922       1587.734       2800.120       1697.915       1659.817
          0.172       2542.921       2398.468       1557.327       2738.827       1664.957       1628.163
          0.174       2492.272       2349.561       1527.795       2679.530       1632.959       1597.424
          0.176       2443.136       2302.136       1499.107       2622.142       1601.884       1567.563
          0.178       2395.454       2256.136       1471.229       2566.583       1571.696       1538.547
          0.180       2349.167       2211.503       1444.131       2512.777       1541.651       1510.345
          0.182       2304.222       2168.184       1417.784       2460.649       1513.138       1482.926
          0.184       2260.568       2126.128       1392.161       2410.132       1485.417       1456.261
          0.186       2215.955       2083.168       1365.942       2358.622       1457.059       1428.978
          0.188       2174.797       2043.553       1341.722       2311.207       1430.872       1403.776
          0.189       2134.786       2005.060       1318.149       2265.212       1405.391       1379.248
          0.191       2095.880       1967.645       1295.199       2220.580       1380.591       1355.370
          0.193       2058.038       1931.270       1272.851       2177.259       1356.447       1332.119
          0.195       2021.222       1895.896       1251.084       2135.197       1332.936       1309.472
          0.197       1985.394       1861.486       1229.877       2094.346       1310.038       1287.410
          0.199       1948.710       1826.270       1208.138       2052.603       1286.571       1264.795
          0.201       1914.802       1793.733       1188.023       2014.096       1264.862       1243.870
          0.203       1881.781       1762.059       1168.412       1976.667       1243.703       1223.470
          0.205       1849.614       1731.219       1149.289       1940.274       1223.075       1203.577
          0.207       1818.273       1701.182       1130.637       1904.881       1202.960       1184.176
          0.208       1787.730       1671.921       1112.442       1870.452       1183.342       1165.249
          0.210       1757.956       1643.410       1094.688       1836.950       1164.204       1146.782
          0.212       1728.928       1615.624       1077.360       1804.345       1145.531       1128.760
          0.214       1699.149       1587.130       1059.568       1770.955       1126.360       1110.253
          0.216       1671.573       1560.755       1043.075       1740.090       1108.594       1093.099
          0.218       1644.669       1535.033       1026.969       1710.027       1091.249       1076.347
          0.220       1618.415       1509.942       1011.238       1680.741       1074.311       1059.986
          0.222       1592.791       1485.462        995.870       1652.203       1057.768       1044.002
          0.224       1567.777       1461.574        980.855       1624.389       1041.607       1028.385
          0.226       1543.353       1438.259        966.181       1597.274       1025.817       1013.124
          0.228       1519.501       1415.497        951.838       1570.835       1010.387        998.206
          0.230       1494.991       1392.118        937.087       1543.711        994.521        982.864
          0.232       1472.257       1370.440        923.393       1518.592        979.794        968.622
          0.233       1450.043       1349.266        910.001       1494.084        965.395        954.694
          0.235       1428.333       1328.580        896.902       1470.166        951.315        941.070
          0.237       1407.111       1308.366        884.087       1446.822        937.542        927.742
          0.239       1386.364       1288.611        871.549       1424.031        924.069        914.701
          0.241       1366.076       1269.300        859.279       1401.777        910.887        901.940
          0.243       1346.235       1250.421        847.270       1380.044        897.988        889.450
          0.245       1325.817       1231.001        834.903       1357.711        884.705        876.586
          0.247       1306.851       1212.968        823.406       1336.995        872.361        864.629
          0.249       1288.294       1195.329        812.148       1316.753        860.275        852.919
          0.251       1270.133       1178.073        801.123       1296.969        848.441        841.452
          0.253       1252.357       1161.188        790.324       1277.630        836.852        830.219
          0.254       1234.955       1144.665        779.745       1258.722        825.500        819.215
          0.256       1217.917       1128.492        769.380       1240.234        814.380        808.433
          0.258       1200.364       1111.835        758.694       1221.211        802.918        797.317
          0.260       1184.041       1096.352        748.750       1203.545        792.253        786.973
          0.262       1168.053       1081.190        739.003       1186.261        781.802        776.834
          0.264       1152.389       1066.341        729.448       1169.349        771.557        766.893
          0.266       1137.042       1051.796        720.079       1152.798        761.515        757.147
          0.268       1122.002       1037.547        710.893       1136.598        751.669        747.590
          0.270       1107.261       1023.587        701.883       1120.739        742.015        738.217
          0.272       1092.812       1009.906        693.047       1105.212        732.547        729.023
          0.274       1077.909        995.801        683.926       1089.216        722.777        719.534
          0.276       1064.035        982.672        675.430       1074.341        713.677        710.694
          0.277       1050.429        969.803        667.094       1059.771        704.749        702.020
          0.279       1037.086        957.184        658.914       1045.497        695.989        693.508
          0.281       1023.998        944.811        650.885       1031.512        687.393        685.153
          0.283       1011.159        932.677        643.004       1017.807        678.957        676.952
          0.285        998.562        920.775        635.267       1004.375        670.677        668.901
          0.287        986.201        909.100        627.672        991.209        662.548        660.996
          0.289        973.439        897.049        619.825        977.630        654.152        652.830
          0.291        961.546        885.822        612.508        964.988        646.324        645.214
          0.293        949.871        874.804        605.322        952.592        638.637        637.735
          0.295        938.410        863.991        598.264        940.435        631.088        630.387
          0.296        927.158        853.378        591.330        928.511        623.673        623.170
          0.298        916.109        842.959        584.518        916.813        616.389        616.078
          0.300        905.258        832.731        577.825        905.337        609.233        609.111
          0.302        894.045        822.164        570.904        893.491        601.835        601.906
          0.304        883.587        812.311        564.447        882.452        594.933        595.183
          0.306        873.314        802.634        558.100        871.618        588.150        588.574
          0.308        863.221        793.130        551.861        860.984        581.483        582.078
          0.310        853.303        783.793        545.728        850.544        574.931        575.692
          0.312        843.558        774.621        539.698        840.296        568.489        569.413
          0.314        833.980        765.609        533.769        830.232        562.156        563.238
          0.316        824.566        756.754        527.939        820.350        555.929        557.167
          0.318        814.830        747.598        521.907        810.139        549.487        550.883
          0.320        805.742        739.053        516.273        800.615        543.472        545.015
          0.321        796.806        730.654        510.731        791.260        537.555        539.242
          0.323        788.020        722.397        505.279        782.069        531.735        533.563
          0.325        779.381        714.280        499.916        773.039        526.011        527.976
          0.327        770.884        706.300        494.639        764.166        520.379        522.479
          0.329        762.527        698.452        489.447        755.446        514.838        517.069
          0.331        753.878        690.332        484.071        746.428        509.102        511.467
          0.333        745.798        682.749        479.047        738.012        503.742        506.231
          0.335        737.850        675.291        474.101        729.739        498.466        501.078
          0.337        730.029        667.954        469.234        721.605        493.274        496.005
          0.339        722.333        660.736        464.442        713.607        488.164        491.011
          0.341        714.760        653.635        459.725        705.744        483.133        486.094
          0.342        707.307        646.648        455.080        698.010        478.181        481.253
          0.344        699.972        639.773        450.507        690.405        473.305        476.485
          0.346        692.374        632.653        445.769        682.534        468.254        471.545
          0.348        685.272        626.000        441.337        675.181        463.530        466.925
          0.350        678.280        619.451        436.973        667.948        458.878        462.375
          0.352        671.396        613.004        432.674        660.832        454.297        457.892
          0.354        664.617        606.658        428.439        653.830        449.785        453.476
          0.356        657.942        600.410        424.268        646.940        445.340        449.126
          0.358        651.368        594.258        420.158        640.160        440.962        444.840
          0.360        644.893        588.201        416.109        633.486        436.649        440.616
          0.362        638.183        581.924        411.911        626.575        432.177        436.237
          0.363        631.906        576.054        407.983        620.115        427.993        432.139
          0.365        625.723        570.273        404.111        613.755        423.870        428.100
          0.367        619.631        564.578        400.296        607.493        419.807        424.119
          0.369        613.629        558.969        396.535        601.328        415.803        420.195
          0.371        607.714        553.442        392.828        595.257        411.857        416.326
          0.373        601.886        547.998        389.174        589.279        407.967        412.513
          0.375        596.143        542.634        385.571        583.392        404.132        408.753
          0.377        590.187        537.072        381.834        577.290        400.155        404.853
          0.379        584.612        531.867        378.335        571.583        396.431        401.200
          0.381        579.117        526.737        374.885        565.961        392.760        397.598
          0.383        573.700        521.682        371.483        560.423        389.140        394.046
          0.385        568.360        516.699        368.127        554.967        385.570        390.543
          0.386        563.095        511.788        364.818        549.590        382.050        387.088
          0.388        557.904        506.946        361.555        544.293        378.578        383.679
          0.390        552.518        501.924        358.167        538.800        374.975        380.142
          0.392        547.474        497.221        354.994        533.659        371.601        376.828
          0.394        542.500        492.585        351.864        528.593        368.272        373.558
          0.396        537.595        488.013        348.776        523.599        364.988        370.332
          0.398        532.757        483.505        345.729        518.677        361.749        367.149
          0.400        527.984        479.059        342.723        513.824        358.553        364.008
          0.402        523.277        474.674        339.756        509.040        355.400        360.908
          0.404        518.633        470.349        336.829        504.324        352.288        357.850
          0.406        513.813        465.861        333.790        499.431        349.058        354.673
          0.407        509.296        461.656        330.941        494.849        346.030        351.696
          0.409        504.839        457.508        328.129        490.330        343.042        348.757
          0.411        500.442        453.416        325.354        485.874        340.094        345.856
          0.413        496.103        449.378        322.615        481.480        337.183        342.992
          0.415        491.820        445.395        319.910        477.145        334.310        340.165
          0.417        487.594        441.464        317.241        472.870        331.475        337.373
          0.419        483.423        437.585        314.606        468.653        328.675        334.618
          0.421        479.091        433.557        311.868        464.275        325.767        331.754
          0.423        475.031        429.782        309.300        460.173        323.041        329.069
          0.425        471.022        426.057        306.765        456.127        320.349        326.417
          0.427        467.065        422.379        304.262        452.134        317.691        323.799
          0.428        463.158        418.749        301.790        448.195        315.066        321.213
          0.430        459.301        415.166        299.349        444.307        312.474        318.658
          0.432        455.493        411.629        296.938        440.470        309.915        316.136
          0.434        451.536        407.954        294.432        436.486        307.255        313.513
          0.436        447.825        404.509        292.082        432.752        304.760        311.053
          0.438        444.160        401.107        289.760        429.066        302.296        308.623
          0.440        440.542        397.748        287.466        425.428        299.862        306.222
          0.442        436.968        394.431        285.200        421.836        297.457        303.850
          0.444        433.438        391.155        282.962        418.291        295.082        301.507
          0.446        429.951        387.921        280.751        414.791        292.736        299.191
          0.448        426.507        384.726        278.566        411.335        290.418        296.903
          0.450        422.927        381.406        276.294        407.745        288.007        294.524
          0.452        419.568        378.291        274.162        404.378        285.746        292.291
          0.453        416.250        375.215        272.055        401.053        283.511        290.084
          0.455        412.972        372.176        269.973        397.770        281.303        287.903
          0.457        409.734        369.174        267.916        394.528        279.121        285.748
          0.459        406.533        366.208        265.882        391.326        276.965        283.617
          0.461        403.371        363.278        263.872        388.163        274.834        281.511
          0.463        400.246        360.383        261.886        385.040        272.728        279.429
          0.465        396.997        357.374        259.820        381.793        270.537        277.264
          0.467        393.947        354.549        257.880        378.747        268.481        275.231
          0.469        390.933        351.758        255.962        375.738        266.448        273.221
          0.471        387.954        349.000        254.067        372.765        264.439        271.233
          0.472        385.010        346.274        252.193        369.828        262.453        269.268
          0.474        382.100        343.580        250.340        366.927        260.489        267.326
          0.476        379.223        340.918        248.508        364.059        258.548        265.404
          0.478        376.379        338.286        246.697        361.226        256.628        263.505
          0.480        373.421        335.549        244.812        358.281        254.631        261.528
          0.482        370.643        332.980        243.042        355.516        252.756        259.671
          0.484        367.897        330.440        241.292        352.784        250.901        257.835
          0.486        365.182        327.929        239.561        350.084        249.068        256.019
          0.488        362.497        325.446        237.849        347.415        247.254        254.223
          0.490        359.843        322.992        236.156        344.777        245.461        252.446
          0.492        357.218        320.566        234.481        342.170        243.687        250.688
          0.493        354.622        318.167        232.825        339.593        241.933        248.950
          0.495        351.921        315.670        231.101        336.912        240.108        247.140
          0.497        349.384        313.326        229.481        334.395        238.393        245.440
          0.499        346.875        311.008        227.879        331.906        236.696        243.758
          0.501        344.394        308.715        226.294        329.446        235.018        242.094
          0.503        341.939        306.448        224.727        327.014        233.358        240.447
          0.505        339.511        304.206        223.175        324.609        231.716        238.818
          0.507        337.110        301.989        221.641        322.231        230.092        237.206
          0.509        334.610        299.680        220.043        319.757        228.400        235.528
          0.511        332.261        297.512        218.541        317.433        226.811        233.950
          0.513        329.938        295.368        217.056        315.135        225.238        232.389
          0.515        327.639        293.246        215.585        312.862        223.683        230.844
          0.518        323.115        289.072        212.691        308.392        220.620        227.802
          0.520        320.888        287.018        211.266        306.193        219.112        226.304
          0.522        318.570        284.879        209.782        303.904        217.542        224.745
          0.524        316.392        282.870        208.387        301.755        216.066        223.278
          0.526        314.236        280.882        207.007        299.628        214.606        221.827
          0.528        312.103        278.915        205.641        297.524        213.161        220.390
          0.530        309.992        276.969        204.288        295.443        211.730        218.968
          0.534        305.835        273.137        201.624        291.347        208.913        216.166
          0.536        303.788        271.251        200.313        289.331        207.526        214.786
          0.537        301.763        269.384        199.014        287.337        206.152        213.420
          0.539        299.653        267.440        197.661        285.261        204.722        211.996
          0.543        295.706        263.804        195.130        281.379        202.045        209.332
          0.545        293.763        262.014        193.883        279.468        200.727        208.020
          0.547        291.839        260.242        192.648        277.577        199.422        206.720
          0.549        289.934        258.489        191.426        275.706        198.130        205.433
          0.553        286.084        254.944        188.954        271.925        195.517        202.831
          0.555        284.237        253.244        187.767        270.112        194.263        201.582
          0.557        282.408        251.560        186.593        268.318        193.021        200.344
          0.559        280.597        249.894        185.429        266.541        191.792        199.119
          0.562        277.028        246.610        183.136        263.042        189.369        196.703
          0.564        275.270        244.992        182.006        261.319        188.175        195.512
          0.566        273.529        243.391        180.887        259.614        186.992        194.333
          0.570        270.007        240.152        178.622        256.166        184.600        191.947
          0.572        268.317        238.598        177.535        254.512        183.452        190.801
          0.576        264.985        235.535        175.391        251.252        181.187        188.541
          0.578        263.343        234.025        174.335        249.646        180.071        187.426
          0.580        261.716        232.530        173.288        248.056        178.966        186.322
          0.584        258.426        229.506        171.169        244.841        176.728        184.088
          0.585        256.846        228.054        170.152        243.298        175.654        183.015
          0.589        253.730        225.192        168.145        240.256        173.535        180.897
          0.591        252.194        223.781        167.155        238.757        172.490        179.853
          0.595        249.165        220.999        165.203        235.802        170.429        177.793
          0.597        247.593        219.556        164.189        234.269        169.360        176.723
          0.601        244.648        216.852        162.291        231.399        167.356        174.719
          0.603        243.196        215.519        161.354        229.984        166.367        173.730
          0.606        240.331        212.890        159.506        227.195        164.417        171.779
          0.608        238.918        211.593        158.594        225.819        163.455        170.816
          0.612        236.130        209.035        156.795        223.107        161.557        168.915
          0.614        234.683        207.708        155.861        221.700        160.571        167.928
          0.618        231.971        205.221        154.110        219.063        158.724        166.078
          0.620        230.563        203.929        153.201        217.695        157.765        165.117
          0.623        228.407        201.952        151.808        215.600        156.296        163.645
          0.626        226.214        199.941        150.391        213.470        154.801        162.147
          0.629        224.053        197.961        148.994        211.373        153.328        160.670
          0.633        221.924        196.009        147.618        209.307        151.877        159.215
          0.636        219.826        194.087        146.261        207.272        150.446        157.780
          0.639        217.694        192.134        144.883        205.206        148.993        156.321
          0.642        215.594        190.210        143.524        203.171        147.561        154.884
          0.646        213.526        188.316        142.186        201.167        146.150        153.467
          0.649        211.426        186.393        140.827        199.135        144.718        152.029
          0.652        209.359        184.500        139.488        197.134        143.307        150.612
          0.656        207.263        182.582        138.131        195.107        141.877        149.175
          0.659        205.200        180.693        136.795        193.112        140.468        147.760
          0.663        203.168        178.834        135.478        191.148        139.082        146.365
          0.667        201.111        176.952        134.145        189.160        137.677        144.952
          0.670        199.085        175.099        132.832        187.204        136.294        143.561
          0.674        197.092        173.275        131.539        185.280        134.932        142.191
          0.677        195.075        171.431        130.231        183.334        133.554        140.804
          0.681        193.089        169.616        128.943        181.419        132.198        139.439
          0.685        191.083        167.782        127.641        179.485        130.827        138.058
          0.689        189.109        165.977        126.360        177.583        129.478        136.699
          0.693        187.166        164.202        125.099        175.711        128.150        135.361
          0.697        185.205        162.410        123.825        173.823        126.809        134.009
          0.701        183.226        160.602        122.539        171.918        125.456        132.644
          0.705        181.279        158.825        121.275        170.046        124.125        131.302
          0.709        179.365        157.077        120.031        168.205        122.816        129.981
          0.713        177.436        155.315        118.776        166.351        121.496        128.648
          0.717        175.538        153.583        117.543        164.528        120.198        127.337
          0.721        173.672        151.880        116.329        162.736        118.921        126.048
          0.725        171.748        150.124        115.077        160.889        117.604        124.717
          0.729        169.901        148.438        113.875        159.116        116.340        123.439
          0.734        168.041        146.742        112.665        157.333        115.067        122.152
          0.738        166.171        145.037        111.447        155.540        113.786        120.857
          0.742        164.333        143.361        110.250        153.779        112.528        119.584
          0.747        162.486        141.677        109.047        152.010        111.263        118.303
          0.751        160.672        140.023        107.864        150.273        110.019        117.045
          0.756        158.849        138.363        106.677        148.529        108.771        115.780
          0.761        157.059        136.731        105.509        146.816        107.544        114.537
          0.765        155.262        135.095        104.337        145.098        106.312        113.289
          0.770        153.460        133.453        103.162        143.376        105.077        112.036
          0.775        151.691        131.842        102.007        141.685        103.864        110.806
          0.780        149.917        130.227        100.850        139.991        102.648        109.572
          0.785        148.175        128.642         99.713        138.329        101.454        108.359
          0.790        146.431        127.055         98.573        136.665        100.257        107.144
          0.795        144.685        125.466         97.433        134.999         99.059        105.927
          0.800        142.971        123.906         96.313        133.365         97.883        104.732
          0.805        141.256        122.347         95.192        131.731         96.706        103.536
          0.810        139.541        120.787         94.071        130.098         95.529        102.339
          0.816        137.859        119.258         92.971        128.496         94.374        101.164
          0.821        136.177        117.730         91.871        126.896         93.220         99.989
          0.827        134.497        116.203         90.772        125.298         92.067         98.814
          0.832        132.850        114.706         89.693        123.732         90.935         97.662
          0.838        131.205        113.212         88.616        122.169         89.805         96.510
          0.843        129.564        111.722         87.541        120.609         88.678         95.360
          0.849        127.926        110.235         86.469        119.055         87.553         94.213
          0.855        126.294        108.753         85.399        117.505         86.431         93.068
          0.861        124.694        107.301         84.351        115.988         85.332         91.946
          0.867        123.100        105.855         83.306        114.476         84.236         90.826
          0.918        110.670         94.588         75.145        102.711         75.686         82.075
          0.925        109.154         93.214         74.149        101.279         74.642         81.004
          0.932        107.670         91.871         73.173         99.878         73.621         79.956
          0.939        106.177         90.520         72.191         98.468         72.592         78.900
          0.946        104.716         89.198         71.230         97.090         71.587         77.867
          0.954        103.248         87.870         70.263         95.705         70.575         76.827
          0.961        101.792         86.553         69.305         94.333         69.572         75.796
          0.969        100.350         85.249         68.355         92.975         68.579         74.773
          0.976         98.903         83.941         67.402         91.612         67.582         73.747
          0.984         97.489         82.664         66.470         90.281         66.608         72.743
          0.992         96.072         81.383         65.536         88.947         65.631         71.736
          1.000         94.670         80.117         64.611         87.629         64.664         70.740
          1.008         93.284         78.865         63.697         86.325         63.709         69.753
          1.016         91.946         77.658         62.814         85.068         62.787         68.801
          1.025         90.478         76.333         61.845         83.689         61.774         67.755
          1.033         89.204         75.184         61.004         82.493         60.896         66.847
          1.042         87.805         73.922         60.081         81.180         59.931         65.849
          1.051         86.441         72.693         59.180         79.901         58.990         64.875
          1.060         85.111         71.494         58.300         78.654         58.072         63.924
          1.069         83.814         70.325         57.443         77.438         57.177         62.996
          1.078         82.548         69.184         56.606         76.252         56.303         62.090
          1.088         81.178         67.950         55.699         74.968         55.357         61.109
          1.097         79.975         66.868         54.904         73.843         54.527         60.247
          1.107         78.673         65.696         54.041         72.624         53.628         59.312
          1.117         77.404         64.554         53.202         71.438         52.752         58.402
          1.127         76.169         63.443         52.383         70.283         51.899         57.514
          1.137         74.965         62.361         51.585         69.157         51.068         56.648
          1.148         73.676         61.203         50.731         67.954         50.178         55.720
          1.159         72.423         60.077         49.900         66.783         49.312         54.818
          1.170         71.204         58.982         49.092         65.646         48.470         53.939
          1.181         70.019         57.918         48.305         64.540         47.651         53.083
          1.192         68.865         56.882         47.539         63.464         46.854         52.250
          1.204         67.641         55.785         46.727         62.323         46.008         51.365
          1.216         66.453         54.719         45.938         61.216         45.187         50.505
          1.228         65.299         53.684         45.171         60.141         44.389         49.669
          1.240         64.177         52.679         44.425         59.096         43.614         48.856
          1.252         63.086         51.703         43.700         58.082         42.860         48.064
          1.265         61.939         50.675         42.937         57.014         42.067         47.231
          1.278         60.826         49.679         42.196         55.979         41.297         46.421
          1.291         59.745         48.713         41.476         54.975         40.550         45.635
          1.305         58.616         47.704         40.725         53.926         39.769         44.813
          1.319         57.523         46.726         39.996         52.910         39.013         44.015
          1.333         56.462         45.779         39.290         51.926         38.280         43.241
          1.348         55.362         44.797         38.556         50.905         37.519         42.437
          1.362         54.366         43.909         37.892         49.981         36.830         41.709
          1.378         53.265         42.926         37.157         48.960         36.068         40.902
          1.393         52.266         42.036         36.490         48.034         35.377         40.170
          1.409         51.234         41.117         35.802         47.078         34.664         39.413
          1.425         50.236         40.229         35.135         46.154         33.974         38.679
          1.442         49.211         39.316         34.450         45.205         33.265         37.925
          1.459         48.221         38.436         33.788         44.288         32.580         37.196
          1.476         47.263         37.585         33.148         43.403         31.918         36.490
          1.494         46.284         36.716         32.493         42.498         31.240         35.767
          1.512         45.339         35.877         31.860         41.624         30.587         35.069
          1.531         44.376         35.024         31.215         40.734         29.921         34.356
          1.550         43.448         34.201         30.593         39.877         29.279         33.668
          1.569         42.552         33.408         29.993         39.049         28.659         33.004
          1.590         41.598         32.563         29.353         38.169         27.999         32.295
          1.610         40.723         31.790         28.766         37.361         27.394         31.644
          1.631         39.837         31.008         28.172         36.545         26.782         30.984
          1.653         38.944         30.220         27.572         35.722         26.165         30.318
          1.675         38.086         29.463         26.996         34.930         25.571         29.677
          1.698         37.222         28.702         26.415         34.134         24.975         29.031
          1.722         36.357         27.941         25.833         33.337         24.377         28.382
          1.746         35.525         27.210         25.274         32.572         23.802         27.758
          1.771         34.694         26.480         24.715         31.807         23.228         27.134
          1.797         33.865         25.753         24.157         31.044         22.655         26.510
          1.823         33.070         25.056         23.621         30.312         22.107         25.910
          1.851         32.249         24.339         23.068         29.558         21.540         25.291
          1.879         31.464         23.653         22.538         28.836         20.998         24.697
          1.907         30.712         22.996         22.031         28.145         20.480         24.127
          1.937         29.941         22.324         21.510         27.436         19.948         23.541
          1.968         29.179         21.662         20.996         26.737         19.423         22.962
          2.000         28.429         21.010         20.488         26.048         18.905         22.390
          2.033         27.690         20.369         19.989         25.369         18.396         21.827
          2.066         26.985         19.759         19.512         24.722         17.911         21.287
          2.101         26.272         19.143         19.029         24.068         17.420         20.741
          2.138         25.554         18.524         18.542         23.409         16.926         20.190
          2.175         24.871         17.936         18.079         22.783         16.457         19.664
          2.214         24.186         17.347         17.614         22.155         15.986         19.136
          2.254         23.518         16.775         17.161         21.543         15.527         18.621
          2.296         22.853         16.206         16.709         20.933         15.071         18.105
          2.339         22.206         15.655         16.269         20.340         14.627         17.604
          2.384         21.565         15.110         15.833         19.753         14.188         17.105
          2.431         20.931         14.572         15.401         19.172         13.754         16.611
          2.480         20.306         14.044         14.975         18.599         13.326         16.122
          2.530         19.703         13.536         14.564         18.047         12.914         15.650
          2.583         19.100         13.029         14.152         17.494         12.502         15.176
          2.638         18.510         12.535         13.749         16.954         12.099         14.711
          2.695         17.933         12.054         13.354         16.426         11.706         14.256
          2.755         17.362         11.580         12.963         15.903         11.318         13.804
          2.818         16.799         11.114         12.577         15.387         10.935         13.357
          2.883         16.254         10.665         12.203         14.887         10.565         12.923
          2.952         15.711         10.220         11.830         14.390         10.196         12.490
          3.024         15.181          9.788         11.465         13.904          9.837         12.066
          3.100         14.657          9.364         11.104         13.425          9.484         11.646
          3.179         14.150          8.955         10.754         12.960          9.141         11.237
          3.263         13.647          8.552         10.406         12.499          8.802         10.831
          3.351         13.156          8.162         10.067         12.049          8.473         10.434
          3.444         12.675          7.782          9.733         11.608          8.149         10.043
          3.542         12.204          7.413          9.406         11.176          7.834          9.660
          3.647         11.737          7.050          9.081         10.747          7.522          9.279
          3.757         11.285          6.702          8.766         10.333          7.221          8.909
          3.874         10.842          6.364          8.456          9.925          6.926          8.545
          3.999         10.406          6.035          8.151          9.525          6.637          8.187
          4.133          9.977          5.715          7.850          9.131          6.354          7.833
          4.201          9.773          5.564          7.707          8.943          6.219          7.665
          4.301          9.489          5.354          7.506          8.681          6.032          7.429
          4.400          9.223          5.161          7.319          8.437          5.857          7.210
          4.501          8.968          4.977          7.139          8.202          5.690          6.998
          4.601          8.730          4.806          6.970          7.983          5.534          6.800
          4.701          8.505          4.647          6.810          7.775          5.387          6.613
          4.801          8.292          4.497          6.658          7.578          5.249          6.436
          4.901          8.090          4.356          6.514          7.392          5.117          6.268
          5.000          7.900          4.225          6.379          7.217          4.994          6.110
          5.101          7.716          4.098          6.247          7.047          4.875          5.957
          5.202          7.541          3.980          6.122          6.885          4.762          5.811
          5.302          7.376          3.868          6.003          6.732          4.656          5.674
          5.401          7.220          3.764          5.891          6.588          4.556          5.544
          5.502          7.068          3.664          5.782          6.448          4.459          5.418
          5.601          6.926          3.571          5.680          6.316          4.368          5.300
          5.701          6.789          3.482          5.580          6.189          4.280          5.186
          5.800          6.659          3.398          5.486          6.069          4.197          5.077
          5.902          6.531          3.316          5.393          5.950          4.116          4.971
          6.002          6.410          3.240          5.306          5.838          4.039          4.871
          6.200          6.185          3.099          5.142          5.630          3.898          4.684
          6.359          6.017          2.996          5.019          5.474          3.792          4.545
          6.527          5.851          2.894          4.897          5.319          3.688          4.407
          6.703          5.687          2.796          4.777          5.167          3.585          4.272
          6.889          5.525          2.701          4.658          5.016          3.485          4.138
          7.086          5.365          2.608          4.540          4.867          3.386          4.006
          7.294          5.207          2.517          4.423          4.720          3.288          3.877
          7.516          5.050          2.429          4.306          4.573          3.192          3.748
          7.750          4.895          2.344          4.191          4.430          3.098          3.622
          8.000          4.743          2.262          4.077          4.287          3.006          3.498
          8.267          4.591          2.182          3.964          4.146          2.915          3.376
          8.552          4.442          2.104          3.852          4.007          2.826          3.255
          8.858          4.294          2.030          3.740          3.869          2.738          3.137
          8.921          4.265          2.015          3.719          3.842          2.721          3.114
          8.986          4.236          2.000          3.696          3.814          2.704          3.090
          9.052          4.207          1.986          3.674          3.787          2.687          3.067
          9.118          4.178          1.972          3.652          3.760          2.670          3.044
          9.186          4.149          1.957          3.630          3.733          2.653          3.020
          9.254          4.120          1.943          3.609          3.706          2.636          2.998
          9.324          4.091          1.929          3.586          3.679          2.619          2.974
          9.394          4.063          1.916          3.565          3.652          2.602          2.952
          9.466          4.034          1.902          3.543          3.625          2.586          2.929
          9.539          4.005          1.888          3.521          3.598          2.569          2.906
          9.613          3.976          1.874          3.499          3.571          2.552          2.884
          9.688          3.948          1.861          3.478          3.545          2.536          2.861
          9.764          3.919          1.848          3.456          3.518          2.519          2.839
          9.842          3.891          1.834          3.434          3.492          2.503          2.816
          9.920          3.863          1.821          3.413          3.465          2.487          2.794
         10.000          3.835          1.808          3.391          3.439          2.471          2.772
         10.080          3.807          1.795          3.370          3.413          2.455          2.750
         10.160          3.780          1.783          3.350          3.388          2.439          2.729
         10.250          3.750          1.769          3.327          3.360          2.422          2.705
         10.330          3.723          1.757          3.307          3.335          2.407          2.685
         10.420          3.694          1.744          3.284          3.308          2.390          2.662
         10.510          3.666          1.732          3.263          3.281          2.374          2.640
         10.600          3.638          1.719          3.241          3.255          2.359          2.618
         10.690          3.611          1.707          3.220          3.230          2.343          2.597
         10.780          3.584          1.695          3.200          3.205          2.328          2.576
         10.880          3.555          1.683          3.177          3.178          2.312          2.554
         10.970          3.529          1.672          3.158          3.154          2.297          2.534
         11.070          3.501          1.660          3.136          3.127          2.281          2.512
         11.170          3.474          1.648          3.115          3.102          2.266          2.491
         11.270          3.447          1.636          3.094          3.077          2.251          2.471
         11.380          3.418          1.624          3.072          3.050          2.235          2.448
         11.480          3.392          1.613          3.052          3.025          2.220          2.429
         11.590          3.364          1.602          3.031          2.999          2.205          2.407
         11.700          3.337          1.591          3.010          2.974          2.190          2.386
         11.810          3.310          1.580          2.989          2.949          2.175          2.366
         11.920          3.284          1.569          2.969          2.925          2.161          2.346
         12.040          3.256          1.558          2.947          2.899          2.146          2.325
         12.160          3.229          1.547          2.926          2.873          2.131          2.305
         12.280          3.202          1.536          2.906          2.848          2.116          2.284
         12.400          3.176          1.526          2.886          2.824          2.102          2.265
         12.530          3.149          1.515          2.864          2.798          2.087          2.244
         12.650          3.124          1.505          2.845          2.775          2.073          2.225
         12.780          3.097          1.495          2.824          2.751          2.059          2.206
         12.920          3.070          1.484          2.803          2.725          2.044          2.185
         13.050          3.044          1.475          2.783          2.701          2.030          2.166
         13.190          3.018          1.465          2.762          2.676          2.016          2.146
         13.330          2.992          1.455          2.742          2.652          2.002          2.127
         13.480          2.965          1.445          2.721          2.627          1.987          2.107
         13.630          2.938          1.435          2.701          2.602          1.973          2.088
         13.780          2.912          1.426          2.681          2.578          1.960          2.069
         13.930          2.887          1.417          2.661          2.555          1.946          2.050
         14.090          2.861          1.407          2.640          2.531          1.932          2.031
         14.250          2.835          1.398          2.620          2.507          1.919          2.012
         14.420          2.809          1.389          2.600          2.482          1.905          1.993
         14.590          2.783          1.380          2.580          2.458          1.891          1.974
         14.760          2.758          1.371          2.560          2.435          1.878          1.956
         14.940          2.732          1.362          2.540          2.411          1.864          1.938
         15.120          2.707          1.354          2.520          2.388          1.851          1.919
         15.310          2.681          1.345          2.500          2.364          1.837          1.901
         15.500          2.655          1.337          2.480          2.340          1.824          1.883
         15.700          2.630          1.328          2.459          2.316          1.811          1.864
         15.900          2.604          1.320          2.440          2.293          1.798          1.847
         16.100          2.580          1.312          2.420          2.270          1.785          1.829
         16.320          2.554          1.304          2.400          2.246          1.771          1.811
         16.530          2.529          1.296          2.381          2.224          1.759          1.794
         16.760          2.504          1.288          2.360          2.200          1.746          1.776
         16.990          2.478          1.280          2.341          2.177          1.733          1.759
         17.220          2.454          1.273          2.322          2.155          1.720          1.742
         17.470          2.428          1.265          2.301          2.131          1.707          1.724
         17.720          2.403          1.258          2.282          2.108          1.694          1.707
         17.970          2.379          1.251          2.263          2.086          1.682          1.691
         18.240          2.354          1.243          2.243          2.063          1.669          1.674
         18.510          2.329          1.236          2.223          2.041          1.656          1.657
         18.790          2.305          1.229          2.204          2.018          1.644          1.641
         19.080          2.280          1.222          2.184          1.996          1.631          1.624
         19.380          2.255          1.215          2.165          1.974          1.619          1.608
         19.680          2.232          1.209          2.146          1.952          1.607          1.592
         20.000          2.207          1.202          2.127          1.930          1.594          1.576
         20.330          2.182          1.196          2.107          1.908          1.582          1.560
         20.670          2.158          1.189          2.088          1.886          1.569          1.545
         21.020          2.134          1.183          2.069          1.864          1.557          1.529
         21.380          2.110          1.177          2.050          1.842          1.545          1.514
         21.760          2.085          1.171          2.030          1.820          1.533          1.498
         22.140          2.062          1.165          2.011          1.799          1.521          1.484
         22.550          2.038          1.159          1.992          1.778          1.508          1.468
         22.960          2.014          1.153          1.973          1.757          1.496          1.454
         23.400          1.990          1.148          1.954          1.735          1.484          1.439
         23.850          1.966          1.142          1.935          1.714          1.472          1.425
         24.310          1.943          1.137          1.916          1.694          1.460          1.411
         24.800          1.919          1.132          1.897          1.673          1.448          1.396
         25.310          1.895          1.126          1.878          1.652          1.436          1.382
         25.830          1.872          1.121          1.860          1.632          1.424          1.369
         26.010          1.864          1.120          1.854          1.625          1.420          1.364
         26.380          1.848          1.116          1.841          1.611          1.412          1.355
         27.000          1.823          1.111          1.821          1.590          1.399          1.341
         28.000          1.785          1.103          1.790          1.557          1.380          1.319
         29.010          1.749          1.096          1.761          1.526          1.362          1.299
         29.500          1.733          1.093          1.748          1.512          1.353          1.290
         30.000          1.717          1.090          1.735          1.499          1.345          1.282
         30.510          1.701          1.087          1.722          1.486          1.337          1.273
         31.010          1.686          1.084          1.710          1.473          1.329          1.265
         32.010          1.658          1.079          1.687          1.449          1.314          1.250
         33.010          1.631          1.074          1.665          1.427          1.301          1.237
         34.010          1.607          1.070          1.645          1.407          1.288          1.224
         35.010          1.583          1.066          1.626          1.388          1.276          1.212
         36.010          1.561          1.062          1.608          1.370          1.264          1.201
         37.010          1.541          1.059          1.591          1.354          1.254          1.191
         38.000          1.522          1.056          1.575          1.338          1.244          1.182
         39.010          1.503          1.053          1.560          1.324          1.234          1.173
         40.010          1.486          1.051          1.545          1.310          1.225          1.165
         41.010          1.470          1.048          1.531          1.297          1.216          1.158
         42.010          1.454          1.046          1.518          1.285          1.208          1.151
         43.010          1.439          1.044          1.506          1.274          1.201          1.144
         44.000          1.426          1.042          1.494          1.263          1.194          1.138
         45.010          1.412          1.040          1.483          1.253          1.187          1.132
         46.010          1.400          1.038          1.472          1.244          1.180          1.127
         47.010          1.388          1.037          1.462          1.235          1.174          1.122
         48.010          1.376          1.035          1.452          1.226          1.168          1.117
         49.010          1.365          1.034          1.442          1.218          1.162          1.113
         50.000          1.355          1.032          1.433          1.211          1.157          1.108
         52.020          1.335          1.030          1.416          1.196          1.147          1.101
         54.010          1.318          1.028          1.400          1.184          1.138          1.094
         56.010          1.301          1.026          1.386          1.172          1.130          1.087
         58.000          1.286          1.024          1.372          1.162          1.122          1.082
         60.020          1.272          1.022          1.359          1.152          1.115          1.076
         62.000          1.260          1.021          1.347          1.143          1.109          1.072
         64.020          1.248          1.020          1.336          1.135          1.103          1.067
         66.030          1.237          1.019          1.326          1.128          1.097          1.063
         68.020          1.226          1.018          1.316          1.121          1.092          1.060
         70.020          1.217          1.017          1.307          1.115          1.087          1.057
         72.010          1.208          1.016          1.298          1.109          1.083          1.054
         74.030          1.199          1.015          1.290          1.104          1.079          1.051
         76.030          1.192          1.014          1.282          1.099          1.075          1.048
         78.040          1.184          1.013          1.275          1.094          1.072          1.046
         80.000          1.177          1.013          1.268          1.090          1.069          1.044
         82.010          1.171          1.012          1.261          1.086          1.066          1.042
         83.000          1.168          1.012          1.258          1.084          1.064          1.041
         83.510          1.166          1.012          1.256          1.083          1.063          1.040
         84.010          1.165          1.011          1.255          1.082          1.063          1.040
         84.530          1.163          1.011          1.253          1.081          1.062          1.039
         84.990          1.162          1.011          1.252          1.080          1.061          1.039
         86.000          1.159          1.011          1.249          1.078          1.060          1.038
         87.020          1.156          1.011          1.246          1.077          1.059          1.037
         87.510          1.155          1.011          1.244          1.076          1.058          1.037
         88.010          1.153          1.010          1.243          1.075          1.057          1.036
        100.000          1.126          1.008          1.214          1.059          1.045          1.028
        105.000          1.117          1.007          1.203          1.054          1.041          1.026
        110.000          1.109          1.007          1.194          1.049          1.038          1.023
        120.000          1.095          1.006          1.177          1.042          1.032          1.020
        150.000          1.067          1.004          1.142          1.027          1.021          1.013
        180.000          1.051          1.002          1.118          1.019          1.014          1.009
        200.000          1.043          1.002          1.106          1.015          1.012          1.007
        220.000          1.037          1.002          1.096          1.013          1.010          1.006
        260.000          1.029          1.001          1.081          1.009          1.007          1.004
        300.000          1.023          1.001          1.070          1.007          1.005          1.003
        395.400          1.015          1.001          1.053          1.004          1.003          1.002
        452.200          1.012          1.000          1.047          1.003          1.002          1.001
        500.400          1.010          1.000          1.042          1.003          1.002          1.001
        525.000          1.010          1.000          1.040          1.002          1.002          1.001
        573.000          1.008          1.000          1.037          1.002          1.001          1.001
        637.600          1.007          1.000          1.033          1.002          1.001          1.001
        705.000          1.006          1.000          1.030          1.001          1.001          1.001
        776.500          1.005          1.000          1.027          1.001          1.001          1.000
        851.700          1.004          1.000          1.025          1.001          1.001          1.000
        929.600          1.004          1.000          1.023          1.001          1.001          1.000
       1012.000          1.003          1.000          1.021          1.001          1.000          1.000
       1188.000          1.003          1.000          1.018          1.000          1.000          1.000
       1254.000          1.002          1.000          1.017          1.000          1.000          1.000
       1487.000          1.002          1.000          1.014          1.000          1.000          1.000
       1550.000          1.002          1.000          1.014          1.000          1.000          1.000
       1772.000          1.001          1.000          1.012          1.000          1.000          1.000
       2067.000          1.001          1.000          1.010          1.000          1.000          1.000
       2480.000          1.001          1.000          1.008          1.000          1.000          1.000
       3100.000          1.000          1.000          1.007          1.000          1.000          1.000
       3543.000          1.000          1.000          1.006          1.000          1.000          1.000
       4134.000          1.000          1.000          1.005          1.000          1.000          1.000
       4960.000          1.000          1.000          1.004          1.000          1.000          1.000
       6200.000          1.000          1.000          1.003          1.000          1.000          1.000
       7086.000          1.000          1.000          1.003          1.000          1.000          1.000
       8267.000          1.000          1.000          1.003          1.000          1.000          1.000
       8552.000          1.000          1.000          1.002          1.000          1.000          1.000
       9186.000          1.000          1.000          1.002          1.000          1.000          1.000
       9920.000          1.000          1.000          1.002          1.000          1.000          1.000
